130.440894312565,0.26088178862513,49.0,83.0579756608996,93.2754675019024,78.125,62.5,1.69350063633524,0.0
122.863719023432,0.245727438046863,51.0,57.8438617905848,99.3323150276126,93.75,101.5625,1.67948161203609,0.0
121.045841965579,0.242091683931158,49.0,44.1204158832266,103.729537360921,97.65625,85.9375,1.80149230475107,0.0
124.735576904312,0.249471153808624,48.0,56.3197405819436,102.599745528267,89.84375,85.9375,1.64522050280614,0.0
108.055372816166,0.216110745632332,48.0,42.426723812997,110.035982844969,105.46875,105.46875,1.51739982155266,0.0
107.115110746878,0.214230221493757,50.0,56.2526881726043,106.465118452881,101.5625,101.5625,1.79762736466621,0.0
126.273068904628,0.252546137809257,49.0,57.7410452331718,101.725019580589,97.65625,105.46875,1.76268203281323,0.0
123.031937389675,0.246063874779351,47.0,58.5839229499253,101.817263443746,97.65625,54.6875,1.80377087126084,0.0
119.105494092331,0.238210988184663,52.0,89.0504233663154,98.1541217087966,85.9375,85.9375,1.67140230211818,0.0
112.187332969908,0.224374665939816,54.0,64.6402274656509,98.3617509399045,89.84375,105.46875,1.79153244950442,0.0
114.025681802185,0.22805136360437,54.0,59.657498062504,91.3354682698691,78.125,78.125,1.68104992729513,0.0
122.264571724491,0.244529143448982,50.0,73.7074814188987,91.5414162517089,82.03125,50.78125,1.72127948765384,0.0
119.901398857216,0.239802797714432,48.0,56.3697446376738,99.6370190299781,85.9375,85.9375,1.75740435268147,0.0
123.276496276019,0.246552992552037,47.0,104.910368179799,96.4880226949118,85.9375,85.9375,1.73348925971039,0.0
121.212653274714,0.242425306549428,48.0,113.820439853722,93.9246733583591,89.84375,46.875,1.79605876086891,0.0
109.495851122327,0.218991702244654,51.0,102.444167116557,97.5417805937765,89.84375,89.84375,1.77108652435372,0.0
145.392838337669,0.290785676675338,39.0,95.3107161766256,88.2788263270465,78.125,89.84375,1.7426275926709,0.0
116.418501592974,0.232837003185949,47.0,95.6287303048671,92.7025745967489,78.125,78.125,1.72721673402879,0.0
122.793728344525,0.245587456689049,49.0,112.38094696376,90.8761577535982,82.03125,58.59375,1.6876221029805,0.0
130.657925841695,0.26131585168339,51.0,112.053382487767,90.5344525580785,78.125,66.40625,1.74332157734777,0.0
124.473475073235,0.248946950146471,57.0,68.9335190266836,94.5031699745293,78.125,66.40625,1.67769209041016,0.0
130.046965380602,0.260093930761204,48.0,48.7921038541256,104.540576617559,93.75,97.65625,1.58640613107361,0.0
128.814220203779,0.257628440407559,44.0,98.558230534614,99.4271229636183,89.84375,74.21875,1.75135425686766,0.0
107.408596565728,0.214817193131455,49.0,36.870599769374,97.1943103835586,82.03125,50.78125,1.33549255324636,0.0
115.405281603533,0.230810563207065,45.0,108.054570455507,85.073239829769,74.21875,70.3125,1.69725560550067,0.0
114.479363225653,0.228958726451305,42.0,87.8611780151356,90.1651448159241,82.03125,46.875,1.65406264143141,0.0
143.712281952991,0.287424563905981,42.0,172.038778013711,84.8758031202862,74.21875,97.65625,1.64665235269231,0.0
175.88505877083,0.35177011754166,40.0,195.92187517488,84.1787916514611,78.125,66.40625,1.67991350646566,0.0
156.32027647608,0.312640552952161,38.0,171.558156766836,92.3094774312282,85.9375,66.40625,1.7237595560345,0.0
131.661785403687,0.263323570807374,44.0,119.927507687786,91.5982621195606,78.125,66.40625,1.7310449063804,0.0
171.380037989181,0.342760075978361,50.0,133.004606122604,87.5229986579613,82.03125,117.1875,1.69308171779669,0.0
155.920837104874,0.311841674209749,49.0,116.913600407042,91.5168867873249,74.21875,74.21875,1.68009851022283,0.0
137.652400163201,0.275304800326403,50.0,83.3221582781838,94.1996948126039,82.03125,70.3125,1.69968432781308,0.0
126.322800414954,0.252645600829908,51.0,62.2179421701603,102.63926889311,89.84375,78.125,1.75685525099511,0.0
131.148577318884,0.262297154637768,47.0,109.047803618163,100.645563813522,93.75,109.375,1.70608368365278,0.0
112.632570610613,0.225265141221227,49.0,65.4980324696349,99.4891286927985,89.84375,132.8125,1.80561923802196,0.0
132.306646243864,0.264613292487728,45.0,82.3492703244718,97.8623966202229,85.9375,74.21875,1.70823569731359,0.0
114.981006766332,0.229962013532664,44.0,89.4665563498555,92.3916829479595,78.125,74.21875,1.71385474099756,0.0
133.424800678885,0.266849601357769,47.0,121.817906528955,87.9043065328717,78.125,54.6875,1.71245670211415,0.0
145.758947768771,0.291517895537541,51.0,166.583144224775,93.316876140447,89.84375,89.84375,1.70746010183963,0.0
121.919597655831,0.243839195311662,53.0,142.400698247423,103.11259293316,101.5625,85.9375,1.74571587490659,0.0
118.312455454837,0.236624910909675,50.0,109.733992426293,95.6401888025187,85.9375,66.40625,1.74701218788386,0.0
130.332571109954,0.260665142219908,44.0,137.367318618506,85.8538300633641,78.125,66.40625,1.71371704713083,0.0
146.937406273583,0.293874812547166,42.0,146.082713699606,89.143676550012,78.125,66.40625,1.69626615423353,0.0
127.844308577774,0.255688617155547,49.0,119.12167826639,98.7494555451729,97.65625,109.375,1.70172988750657,0.0
115.01038868843,0.23002077737686,53.0,93.4284586081451,102.63213224777,85.9375,66.40625,1.84655902830897,0.0
122.074296171108,0.244148592342216,48.0,96.8956175415849,102.249039020449,93.75,93.75,1.68226376358457,0.0
122.009944437444,0.244019888874889,50.0,69.6179331908063,106.341337177814,93.75,93.75,1.69756932760547,0.0
129.594164536235,0.259188329072469,49.0,84.5996782943068,100.698451274481,89.84375,89.84375,1.75201385774824,0.0
114.921358937793,0.229842717875587,53.0,66.9251694274465,98.5260999317783,89.84375,62.5,1.73914152375493,0.0
104.144046996784,0.208288093993567,49.0,83.4757416467912,98.2643924047624,85.9375,70.3125,1.72233492967496,0.0
119.7311526559,0.2394623053118,43.0,129.008405551661,95.9544152219587,89.84375,89.84375,1.62285070852777,0.0
138.687873113211,0.277375746226422,46.0,145.352645896073,96.1300846090008,89.84375,66.40625,1.80932951070758,0.0
146.729101691509,0.293458203383017,42.0,143.938210266895,88.7902372576992,85.9375,66.40625,1.77825227463304,0.0
150.540850381789,0.301081700763578,44.0,81.3193717075112,86.6693180572629,82.03125,85.9375,1.62164919764241,0.0
131.963793247646,0.263927586495292,50.0,99.1587338819113,91.7497693405644,85.9375,70.3125,1.64703121033934,0.0
113.062102810965,0.22612420562193,54.0,107.050721871094,97.6278805670519,93.75,93.75,1.7949627500452,0.0
131.738217668647,0.263476435337294,47.0,155.342372045798,92.5840600128344,89.84375,74.21875,1.71330422858917,0.0
147.43513855177,0.294870277103539,41.0,130.70838155181,92.2147251067112,89.84375,89.84375,1.74954247903433,0.0
135.64630380778,0.271292607615561,50.0,163.848122347515,91.3804234054665,85.9375,97.65625,1.72323661250414,0.0
112.678366953188,0.225356733906376,58.0,87.2987387258302,90.5929250230966,70.3125,62.5,1.65301630350772,0.0
106.776880309468,0.213553760618936,50.0,99.9396411904755,91.6426717331758,78.125,66.40625,1.71299919091954,0.0
106.93387716831,0.21386775433662,45.0,123.970754620494,88.4745856867918,70.3125,62.5,1.7117383737686,0.0
98.0655179132851,0.19613103582657,45.0,130.696152950642,88.2064595541818,70.3125,58.59375,1.56045777030664,0.0
102.150940664195,0.204301881328389,46.0,104.552494479781,94.4175279632521,78.125,78.125,1.76461087383143,0.0
113.17932713507,0.22635865427014,46.0,93.5365055875487,98.2402766092704,97.65625,46.875,1.80216835437717,0.0
108.862238377592,0.217724476755184,49.0,100.928936155377,96.0075014125942,85.9375,82.03125,1.70825890105288,0.0
89.990301494992,0.179980602989984,49.0,103.67787315458,86.752529720271,85.9375,35.15625,1.68505404475478,0.0
99.0339549866971,0.198067909973394,41.0,137.830419509406,82.4966747637351,66.40625,66.40625,1.64462060114376,0.0
104.025959385867,0.208051918771734,39.0,170.949804441476,82.5262445402237,70.3125,54.6875,1.62713531833371,0.0
105.182688858277,0.210365377716555,41.0,136.668768782396,85.5495862705412,82.03125,85.9375,1.72345625470323,0.0
128.291977997514,0.256583955995029,38.0,138.733583421265,88.4076347616407,82.03125,70.3125,1.64939482845027,0.0
138.429459346653,0.276858918693305,42.0,136.206572236132,80.0578805058563,74.21875,54.6875,1.64058214638298,0.0
129.426042599716,0.258852085199431,39.0,162.697919664206,88.6986629052707,82.03125,46.875,1.67234521954068,0.0
122.392517256008,0.244785034512017,49.0,192.697042547718,86.7438074931593,82.03125,82.03125,1.73962396763201,0.0
115.838296689447,0.231676593378894,50.0,127.100298166345,88.3118557910707,78.125,62.5,1.6103886643112,0.0
113.528743126503,0.227057486253005,52.0,15.2180796130232,121.505210297598,117.1875,62.5,1.96228964001085,0.0
108.866004086047,0.217732008172093,69.0,8.02109856920301,135.357158653082,125.0,35.15625,1.8139956410707,0.0
84.066099022889,0.168132198045778,83.0,7.72683679119679,143.759543943753,125.0,50.78125,2.02890869249056,0.0
89.4854382817285,0.178970876563457,73.0,14.2055770266686,135.606596111879,128.90625,164.0625,2.02557159400402,0.0
99.4742706165756,0.198948541233151,69.0,9.9803727989245,135.818938846909,125.0,62.5,1.95367446115248,0.0
86.7352650134579,0.173470530026916,71.0,9.01234858923428,145.502181508045,128.90625,109.375,1.96555285254923,0.0
87.0679320929662,0.174135864185932,63.0,10.1577671668704,134.979964993882,109.375,74.21875,2.03528552167747,0.0
75.7563820818028,0.151512764163606,68.0,13.5964368891741,125.813368576213,105.46875,70.3125,1.97794866335261,0.0
78.4284018320479,0.156856803664096,72.0,14.0618813782032,138.37179663487,117.1875,117.1875,1.85298452972031,0.0
82.3815477389975,0.164763095477995,67.0,11.3887439609304,140.034066900391,117.1875,89.84375,1.94383246572843,0.0
84.9515440718172,0.169903088143634,63.0,12.7741708176288,132.079925637216,113.28125,54.6875,1.97115432721761,0.0
80.1961153906869,0.160392230781374,67.0,13.4505103354316,139.869039259086,132.8125,152.34375,1.96745370264155,0.0
79.2484364648992,0.158496872929798,71.0,11.7510119716481,139.472024829881,132.8125,74.21875,1.99358105221075,0.0
75.6637462227793,0.151327492445559,67.0,11.8653936543332,128.661926610304,109.375,70.3125,1.9756193859196,0.0
79.9957163429167,0.159991432685833,61.0,16.4860985858104,117.371281302378,97.65625,35.15625,1.94873020343541,0.0
96.0810587421757,0.192162117484351,67.0,21.4284326787021,124.301120552073,109.375,109.375,1.88497593996834,0.0
90.2537226411408,0.180507445282282,71.0,13.9267629781174,129.020218896454,109.375,70.3125,1.99305579767354,0.0
81.4696375854543,0.162939275170909,57.0,24.7109590596901,116.668045785658,109.375,46.875,1.87147207811778,0.0
84.1049533945578,0.168209906789115,58.0,20.9902616671544,121.205479945096,105.46875,82.03125,1.86829504682321,0.0
78.717943039176,0.157435886078352,65.0,15.6195013249883,138.606793122874,132.8125,175.78125,1.97619255895237,0.0
83.7212055785549,0.16744241115711,61.0,20.2222769235283,128.629912795194,128.90625,179.6875,1.92148939527751,0.0
94.9973672164355,0.189994734432871,56.0,23.5814884892669,118.53169651312,105.46875,46.875,1.98492340552422,0.0
91.7377255518085,0.183475451103617,58.0,21.9767125070723,120.736160286138,105.46875,46.875,1.92586541170305,0.0
93.6090988049464,0.187218197609893,60.0,17.9478660221026,131.426897464091,121.09375,74.21875,1.94273259492508,0.0
100.799332172354,0.201598664344708,62.0,16.7981077693812,135.47402907706,128.90625,46.875,1.91931197000658,0.0
97.6242666547652,0.19524853330953,55.0,22.0706363621245,129.257693234109,128.90625,70.3125,1.9763888835098,0.0
96.1221649542071,0.192244329908414,51.0,15.3588363312369,120.926034253906,109.375,70.3125,1.86833157029164,0.0
105.316268155516,0.210632536311032,53.0,16.9457782295139,117.462135907498,105.46875,74.21875,1.87080176726465,0.0
111.188407757211,0.222376815514421,58.0,20.4568516159905,120.487130894678,105.46875,78.125,1.93872332476087,0.0
115.345066228588,0.230690132457176,61.0,19.048428897101,122.302820247661,113.28125,70.3125,1.91708062677395,0.0
108.755946604363,0.217511893208727,58.0,18.9661654190738,125.091287814097,128.90625,128.90625,1.86610191810513,0.0
107.495795834635,0.214991591669269,56.0,19.8126189047536,124.03929860081,125.0,136.71875,1.92713255567411,0.0
107.570749573789,0.215141499147578,61.0,20.3578930065963,123.674604786154,117.1875,175.78125,1.951538257126,0.0
98.0193535833233,0.196038707166647,56.0,15.6946468077169,127.221655666926,117.1875,136.71875,1.96944629986665,0.0
94.2432061419873,0.188486412283975,60.0,13.5741153284644,116.831056461184,97.65625,82.03125,1.95378161111672,0.0
98.3876962012017,0.196775392402403,64.0,13.2957990119921,119.841707522254,105.46875,70.3125,1.84353720744942,0.0
94.3723414563867,0.188744682912773,72.0,12.6449912743846,132.454532706317,113.28125,113.28125,1.97410075982843,0.0
88.274928976807,0.176549857953614,71.0,14.6633073226549,132.672017893501,128.90625,171.875,1.95998178468839,0.0
99.08718691059,0.19817437382118,58.0,15.7541128158486,123.131669440919,113.28125,46.875,1.97377736637398,0.0
106.549818153873,0.213099636307747,52.0,17.3258382657486,119.36243966194,93.75,50.78125,1.89648737366292,0.0
113.533298057442,0.227066596114883,65.0,20.6143756587088,122.964311064822,109.375,66.40625,1.9334852596086,0.0
90.9198001074839,0.181839600214968,64.0,12.1736546302248,123.24142943625,109.375,89.84375,1.88124042467002,0.0
85.8732017844786,0.171746403568957,66.0,12.4717022808774,124.312419970313,101.5625,50.78125,1.96273278895951,0.0
90.5605935345185,0.181121187069037,69.0,13.3010546852463,134.733074863015,136.71875,70.3125,2.03339629587927,0.0
98.395713458659,0.196791426917318,62.0,21.801292612022,124.930405243955,117.1875,66.40625,1.919481922285,0.0
107.813255295685,0.21562651059137,62.0,24.633386335816,118.554259101473,113.28125,101.5625,1.85308878169237,0.0
116.642298489773,0.233284596979546,64.0,25.7481557658384,120.984285722384,113.28125,113.28125,1.7655537670905,0.0
101.974916399839,0.203949832799678,58.0,28.2873873410659,120.199446572671,109.375,113.28125,1.91498587474194,0.0
108.607005997654,0.217214011995308,52.0,22.1172199083934,118.372159190747,105.46875,46.875,1.88056430106818,0.0
125.386093970854,0.250772187941709,56.0,21.4393776419281,111.33532621002,93.75,46.875,1.92582515660495,0.0
110.301468361158,0.220602936722316,59.0,18.9491585673799,116.158578634382,93.75,66.40625,1.79626197429556,0.0
111.142548434164,0.222285096868329,64.0,22.7093165609922,127.841352592204,113.28125,82.03125,1.91912018001074,0.0
103.697455380294,0.207394910760587,64.0,25.5723240868899,120.378071532112,113.28125,132.8125,1.90900299577812,0.0
102.853751468013,0.205707502936025,67.0,17.3659730275201,126.513608039685,117.1875,136.71875,1.97857987909366,0.0
105.276315911023,0.210552631822046,76.0,10.8683028662533,144.734292339816,136.71875,113.28125,1.95185526864375,0.0
114.909503963749,0.229819007927498,68.0,15.5922083734121,127.60839575654,121.09375,50.78125,1.95482198117086,0.0
105.918116581509,0.211836233163018,54.0,20.8331966148822,112.947772442519,109.375,50.78125,1.91701421518795,0.0
92.9161897851066,0.185832379570213,54.0,18.8440439841184,118.124251651596,113.28125,39.0625,1.92268561168799,0.0
100.44343040685,0.2008868608137,57.0,24.1700691638744,117.775654493982,109.375,109.375,1.93845826000255,0.0
105.052777048417,0.210105554096834,56.0,26.7764338621738,120.32233927751,113.28125,144.53125,1.88796552628891,0.0
98.1893203232084,0.196378640646417,55.0,33.3606892046861,121.911260815486,109.375,85.9375,1.9257614694111,0.0
86.6895579333822,0.173379115866764,64.0,43.0939548413103,123.112611636521,113.28125,179.6875,1.92072871934597,0.0
84.8506575400514,0.169701315080103,67.0,30.6601601524008,124.702265608066,113.28125,46.875,1.95229467731373,0.0
85.1828950720604,0.170365790144121,59.0,12.4826982023303,126.62032639055,109.375,109.375,1.94843631856472,0.0
91.3248959597842,0.182649791919568,63.0,13.3980992514395,127.654838894493,101.5625,82.03125,1.89039175747194,0.0
97.4805766059266,0.194961153211853,59.0,19.658931593105,124.544352063577,109.375,97.65625,1.88905815057188,0.0
91.5306856685506,0.183061371337101,52.0,29.2792543192456,107.721877201488,93.75,66.40625,1.87236889696377,0.0
103.949913549557,0.207899827099113,66.0,20.2122854467197,124.694030786272,109.375,109.375,1.88086480494846,0.0
104.043801773741,0.208087603547483,65.0,17.3308898733091,131.635355510082,128.90625,136.71875,1.9896741994242,0.0
100.917587693577,0.201835175387154,56.0,20.5559500053212,129.814110188562,113.28125,78.125,1.82614031034955,0.0
92.9632447313677,0.185926489462735,62.0,23.4573662610628,130.962760668934,121.09375,97.65625,1.82419130272962,0.0
83.9413896436263,0.167882779287253,72.0,29.6349081842903,134.103994804265,128.90625,105.46875,1.83423280826905,0.0
75.3700925033648,0.15074018500673,71.0,20.1235079781364,132.934438214249,121.09375,152.34375,1.89583078424997,0.0
85.6030248571653,0.171206049714331,70.0,15.8004105765067,137.058157029186,125.0,74.21875,1.90469092668817,0.0
85.2013030551523,0.170402606110305,56.0,16.352946329403,122.200605489981,113.28125,35.15625,1.85400826038282,0.0
91.424417823612,0.182848835647224,68.0,23.8729929600288,125.021117949494,113.28125,136.71875,1.82601742383798,0.0
158.384135193768,0.316768270387537,38.0,184.033828047024,75.1142962573557,66.40625,39.0625,1.66779153378636,1.0
164.816953266904,0.329633906533807,38.0,231.293806040909,74.0364853213653,70.3125,82.03125,1.60716688621127,1.0
160.053319944527,0.320106639889055,39.0,188.425477806536,77.3844078138329,70.3125,62.5,1.63342212238969,1.0
146.899971750723,0.293799943501445,40.0,218.097859309407,80.0183733058197,66.40625,62.5,1.62216175514606,1.0
146.413176667331,0.292826353334661,40.0,257.179875089808,76.3578149613826,70.3125,70.3125,1.60152193041817,1.0
135.085837554447,0.270171675108893,41.0,212.411260456944,73.7963449205097,70.3125,70.3125,1.61931560360567,1.0
151.251931114773,0.302503862229546,42.0,158.808515168618,74.4467678227138,70.3125,70.3125,1.48033137442147,1.0
179.908404700231,0.359816809400463,39.0,165.627051223268,77.5848996389814,70.3125,70.3125,1.51372387955026,1.0
151.30854521075,0.3026170904215,43.0,122.587277319547,83.5277481644457,74.21875,46.875,1.58176973504482,1.0
129.589144196404,0.259178288392807,40.0,138.197928158855,83.9622528236832,78.125,31.25,1.64964168754778,1.0
139.115498857808,0.278230997715616,40.0,300.88431187332,80.2580917206713,74.21875,31.25,1.70711720908433,1.0
134.9905083184,0.2699810166368,44.0,268.91051517967,80.0001127601601,74.21875,35.15625,1.65087189838309,1.0
135.74709514857,0.27149419029714,38.0,219.149654563477,72.0595537577772,66.40625,35.15625,1.47643090326404,1.0
133.935660861298,0.267871321722597,38.0,246.226745128892,76.010283742915,70.3125,70.3125,1.5974316065659,1.0
122.534510628821,0.245069021257642,43.0,162.225883846683,83.7688071508138,74.21875,66.40625,1.67900852512072,1.0
120.663374339893,0.241326748679786,40.0,233.903601712158,83.5042951959546,78.125,97.65625,1.66739496145175,1.0
132.877488963785,0.26575497792757,36.0,285.105156421626,81.5516265873265,70.3125,66.40625,1.61265676721334,1.0
129.612630429961,0.259225260859922,40.0,232.675116709682,82.0615097835761,70.3125,66.40625,1.57550088191339,1.0
100.934274906664,0.201868549813328,44.0,155.998210472176,88.0022742313633,78.125,78.125,1.65852631582777,1.0
111.577877174632,0.223155754349264,44.0,335.925364492524,81.0889302228019,74.21875,46.875,1.58475964803902,1.0
112.053980770128,0.224107961540257,38.0,365.586784195391,78.0263604862226,74.21875,42.96875,1.64778005064602,1.0
73.6473320503334,0.147294664100667,42.0,249.155577258963,77.5985743442607,70.3125,70.3125,1.55230399872059,1.0
83.6701953625987,0.167340390725197,44.0,227.80633889988,68.5538023613764,54.6875,35.15625,1.50351277285373,1.0
86.6012141903661,0.173202428380732,39.0,252.059887545615,73.2247807133688,62.5,39.0625,1.56584319872379,1.0
80.7771024936512,0.161554204987302,42.0,183.038726479767,89.7833373184349,85.9375,105.46875,1.6608761191094,1.0
102.556787604231,0.205113575208461,40.0,244.264665621516,84.7416587714468,74.21875,70.3125,1.59365754308638,1.0
95.7156424507323,0.191431284901464,44.0,203.742177518086,77.0414351010051,70.3125,74.21875,1.55222423994737,1.0
85.6386121345353,0.171277224269071,44.0,211.353635571643,71.7558844518374,62.5,66.40625,1.50454939517897,1.0
87.3725206834766,0.174745041366953,43.0,166.782350292395,84.133508385573,66.40625,46.875,1.66533580250947,1.0
91.0096813206899,0.18201936264138,46.0,227.455311023659,88.5942459660231,74.21875,50.78125,1.73360079595999,1.0
97.1373272205125,0.194274654441025,46.0,276.805035487866,80.7972044942534,74.21875,74.21875,1.65696125585032,1.0
112.632669077148,0.225265338154296,40.0,341.116787491478,81.8734369800642,74.21875,50.78125,1.59251353011851,1.0
131.983003195542,0.263966006391085,39.0,335.166267031145,76.0444673825574,62.5,50.78125,1.58741992028202,1.0
114.555723764071,0.229111447528142,43.0,344.289474376689,73.5253328507145,62.5,35.15625,1.64798829836689,1.0
124.962174859357,0.249924349718714,39.0,226.737163573209,78.1115793962945,66.40625,42.96875,1.6038171620046,1.0
134.599674444377,0.269199348888754,37.0,241.465738801267,83.2846500258324,78.125,85.9375,1.63148600902525,1.0
121.576756584609,0.243153513169219,36.0,170.296615491115,84.2683767110892,74.21875,74.21875,1.73415204002839,1.0
115.856117021998,0.231712234043996,35.0,284.647559581068,76.4542184850589,66.40625,66.40625,1.61901476869096,1.0
137.103821758264,0.274207643516527,37.0,309.485534930629,79.9268817382773,70.3125,70.3125,1.59985000697129,1.0
127.402164097769,0.254804328195538,38.0,264.124784819975,78.7277646498426,66.40625,66.40625,1.6414000565348,1.0
124.983048456357,0.249966096912713,45.0,282.63854890053,77.3420894931655,70.3125,78.125,1.59406137273785,1.0
119.684230552912,0.239368461105825,41.0,292.855844408371,78.278364026326,78.125,39.0625,1.66876428445963,1.0
124.278735570765,0.248557471141531,38.0,245.650440705887,83.466681438055,78.125,66.40625,1.63784016744627,1.0
127.000620803264,0.254001241606528,40.0,207.22026536032,87.083899314781,78.125,82.03125,1.58868822037689,1.0
122.723483561935,0.245446967123869,40.0,219.77045366595,88.8251684785093,82.03125,78.125,1.66732125416996,1.0
122.594792592101,0.245189585184202,43.0,190.221775480563,82.8597200535311,74.21875,105.46875,1.68939313498489,1.0
109.390173739744,0.218780347479487,47.0,192.995307744554,81.8260075859732,70.3125,46.875,1.64222042416979,1.0
97.6713228364744,0.195342645672949,45.0,198.371625006511,85.6874126263489,78.125,117.1875,1.7695062421284,1.0
117.4229170507,0.234845834101401,42.0,242.232753580179,90.5232972555465,89.84375,31.25,1.71351478863461,1.0
110.364337508075,0.220728675016151,47.0,247.47746606085,76.7508839370833,62.5,46.875,1.56605217689826,1.0
153.318404275161,0.306636808550323,37.0,325.563102081175,73.4760081308475,62.5,62.5,1.54170132790281,1.0
139.235939157354,0.278471878314708,37.0,202.361497271162,76.0335936502786,66.40625,62.5,1.48738557151662,1.0
118.325293764284,0.236650587528568,36.0,164.05184581857,76.3794938541582,62.5,39.0625,1.64857313639696,1.0
121.949657855647,0.243899315711295,34.0,137.385940596012,75.6888685235885,66.40625,54.6875,1.57981324544225,1.0
144.258201138225,0.28851640227645,36.0,297.063585873317,80.1192076601654,66.40625,66.40625,1.54931513049534,1.0
136.808857714426,0.273617715428851,36.0,90.1062444461503,81.2761601694711,74.21875,93.75,1.42067826640715,1.0
144.8351200159,0.289670240031801,37.0,268.429845256815,79.4321425663453,70.3125,70.3125,1.51082249426358,1.0
131.184394209479,0.262368788418958,43.0,71.5964223155004,82.1474154236441,74.21875,74.21875,1.24451153519322,1.0
115.577431590108,0.231154863180217,40.0,186.169986676966,71.8627587120219,62.5,74.21875,1.40549223703668,1.0
128.441042125936,0.256882084251871,39.0,161.676392070343,71.5866642434285,62.5,74.21875,1.48304318317447,1.0
146.811953118556,0.293623906237113,39.0,384.871329296134,70.8328593110908,70.3125,70.3125,1.53220374929989,1.0
163.890483932619,0.327780967865238,33.0,434.814061206805,69.4907324450143,66.40625,66.40625,1.42183583526836,1.0
145.355658560749,0.290711317121498,42.0,467.153332709394,70.793689645243,70.3125,70.3125,1.42505968159088,1.0
121.883302427728,0.243766604855456,47.0,290.429507432051,79.1371697986103,70.3125,66.40625,1.62600942902398,1.0
138.661217238599,0.277322434477198,36.0,223.899259048664,75.0550650172911,66.40625,66.40625,1.58964641088852,1.0
143.680914467556,0.287361828935112,33.0,225.754142786003,76.5012896526741,70.3125,70.3125,1.53335189904038,1.0
126.394851224755,0.252789702449511,33.0,147.233275374021,71.2047525998642,62.5,39.0625,1.38480421781898,1.0
134.017731341629,0.268035462683258,38.0,304.818340897564,73.6103121533261,70.3125,58.59375,1.47397924922784,1.0
138.842711788781,0.277685423577562,35.0,279.236806323499,73.5319902799507,66.40625,70.3125,1.59660543210222,1.0
144.633810647972,0.289267621295944,36.0,261.421832308593,76.5840005153354,70.3125,62.5,1.58500016583937,1.0
137.578123540877,0.275156247081754,38.0,449.79248081821,75.9600452979508,74.21875,74.21875,1.58967614436877,1.0
118.195544900882,0.236391089801763,34.0,263.518454379642,78.8924842372729,66.40625,42.96875,1.5555819474655,1.0
130.406305083764,0.260812610167527,33.0,308.580530823843,77.475943888874,70.3125,58.59375,1.54272664603625,1.0
107.978246981523,0.215956493963046,33.0,80.2646179057511,81.3235034170229,62.5,62.5,1.46921009322307,1.0
104.675350204907,0.209350700409813,33.0,390.041943111104,74.7989956498779,62.5,62.5,1.53801489425615,1.0
106.414670739196,0.212829341478392,43.0,76.7206285989801,85.8569217559169,74.21875,58.59375,1.20203864023581,1.0
124.374041684405,0.248748083368811,50.0,40.9028936388961,98.7401537205946,97.65625,101.5625,1.83059479778342,1.0
164.04527028415,0.328090540568299,45.0,67.1896926917848,100.908975518877,85.9375,54.6875,1.83124949650003,1.0
158.126172649965,0.31625234529993,48.0,52.6628698878819,97.3068835192903,82.03125,54.6875,1.79630176897793,1.0
156.618571558634,0.313237143117268,51.0,48.7320203561104,96.4309319723607,82.03125,50.78125,1.82379188981292,1.0
166.407430403689,0.332814860807378,55.0,24.0692953391357,104.058239876852,89.84375,46.875,1.75090946020129,1.0
162.71321920939,0.32542643841878,47.0,40.3098927726875,98.1809735443163,78.125,46.875,1.84320271415197,1.0
158.918627376647,0.317837254753294,42.0,87.5664353452906,97.4190134124695,74.21875,50.78125,1.76713095467932,1.0
144.389782326423,0.288779564652845,49.0,68.4315480873121,101.837977634183,82.03125,66.40625,1.81960351258398,1.0
127.697017264285,0.255394034528571,53.0,45.2566512551709,103.751701890856,85.9375,66.40625,1.82167763487204,1.0
106.561194881386,0.213122389762773,53.0,31.6111457523234,105.709332080257,82.03125,70.3125,1.86524675996872,1.0
122.977190691988,0.245954381383975,51.0,41.3799057555266,99.856277577037,82.03125,54.6875,1.75260251717493,1.0
128.867184228232,0.257734368456463,44.0,54.0971798148111,95.5153215954188,78.125,54.6875,1.77878623485551,1.0
129.180349522298,0.258360699044596,50.0,61.3652845991607,97.0819767523537,89.84375,58.59375,1.70922002563639,1.0
154.281866935615,0.308563733871229,53.0,103.583856238273,101.006160999514,93.75,54.6875,1.76581245651222,1.0
143.113453590416,0.286226907180833,50.0,29.3665294678028,110.463776674795,93.75,74.21875,1.88829986743248,1.0
156.353819687604,0.312707639375208,52.0,27.036618922382,114.630974827335,97.65625,85.9375,1.74353214321716,1.0
157.430067193555,0.314860134387111,48.0,33.2207027086293,110.601030601525,89.84375,85.9375,1.82639701259271,1.0
126.013378996739,0.252026757993478,52.0,46.9019609802749,105.777571887971,82.03125,66.40625,1.88252802021431,1.0
131.223433916087,0.262446867832175,51.0,50.7312811191346,99.4819592290966,89.84375,39.0625,1.70929748739777,1.0
158.899302975963,0.317798605951925,44.0,50.2267345353113,96.8416314240479,89.84375,46.875,1.76983352944942,1.0
160.331297812471,0.320662595624941,43.0,75.0096116780159,93.298827008993,78.125,46.875,1.77414441762865,1.0
159.639409271082,0.319278818542163,43.0,57.1805002952182,94.7414298365127,82.03125,89.84375,1.71945391994931,1.0
169.46702303694,0.33893404607388,43.0,89.1378373556253,99.4257047011208,89.84375,89.84375,1.78095807589423,1.0
173.164513169509,0.346329026339019,42.0,98.1901125701569,94.6212801075225,85.9375,62.5,1.79557848565433,1.0
172.905582330477,0.345811164660955,41.0,59.2521873547965,89.1806892582965,74.21875,50.78125,1.75158514509716,1.0
149.509646122347,0.299019292244694,47.0,58.6958651665632,90.7309342765654,74.21875,46.875,1.76596064275856,1.0
132.954592197276,0.265909184394552,48.0,72.4065109002996,88.1329729802918,74.21875,46.875,1.69984716801743,1.0
143.756807345315,0.287513614690631,45.0,105.904978143255,91.0812185451029,78.125,46.875,1.68338710283209,1.0
142.614521295197,0.285229042590395,47.0,72.391520051752,97.7225600153436,82.03125,82.03125,1.80847186151729,1.0
132.270393778228,0.264540787556455,55.0,51.4813133332278,99.5195723824714,85.9375,82.03125,1.79727796195966,1.0
134.980324847748,0.269960649695496,51.0,80.7499247058815,91.1875859935127,74.21875,66.40625,1.75721088590073,1.0
124.690613643246,0.249381227286493,40.0,95.4703745488348,89.8590722884896,74.21875,50.78125,1.76478015198589,1.0
110.833896843823,0.221667793687646,38.0,94.3108910431929,96.3759769068289,85.9375,85.9375,1.8013697439266,1.0
120.648921419001,0.241297842838002,40.0,81.3999985125353,99.6215008870086,85.9375,58.59375,1.79198996615786,1.0
139.143841170311,0.278287682340622,42.0,124.747663314904,89.9378655587993,70.3125,62.5,1.75037924379469,1.0
144.518699071966,0.289037398143931,45.0,96.0577560825764,91.4800535529679,70.3125,66.40625,1.6653672421559,1.0
135.107218222114,0.270214436444227,43.0,78.0141820349058,91.4921131461481,74.21875,66.40625,1.6582585613553,1.0
130.770122652496,0.261540245304993,46.0,128.268455216142,88.6751544001188,82.03125,93.75,1.75727446524894,1.0
147.40760138397,0.294815202767941,47.0,87.0628823057009,92.2962901782021,89.84375,50.78125,1.58562884490367,1.0
145.239279723388,0.290478559446776,51.0,104.700615744232,90.355960586656,82.03125,46.875,1.78921284274261,1.0
126.942970305049,0.253885940610097,50.0,51.0635355604409,95.5052111437455,85.9375,42.96875,1.79928392826697,1.0
152.47062504309,0.304941250086179,45.0,54.2992491235981,110.775365835668,101.5625,101.5625,1.81938776249777,1.0
163.335427025427,0.326670854050855,50.0,41.3490847696438,113.456329286784,101.5625,89.84375,1.8255012897709,1.0
152.883609405785,0.305767218811569,49.0,36.3852228306657,104.443011853622,93.75,70.3125,1.88462942270838,1.0
139.30934886827,0.27861869773654,44.0,49.8114047780011,95.8961555649559,85.9375,93.75,1.77849593271851,1.0
134.814974298807,0.269629948597615,46.0,34.9996455802279,103.036819953168,101.5625,50.78125,1.84606048479585,1.0
156.428229898359,0.312856459796718,50.0,47.7734303102621,111.009923407944,113.28125,113.28125,1.88483565947971,1.0
187.257688965774,0.374515377931549,48.0,53.7032764343888,108.697475006336,105.46875,50.78125,1.87099085577005,1.0
211.589788277706,0.423179576555411,51.0,33.7992365579039,112.643915399058,97.65625,54.6875,1.87689988096174,1.0
184.37550642112,0.36875101284224,58.0,25.3052781442869,112.776915449848,105.46875,50.78125,1.7127833484088,1.0
175.397921313486,0.350795842626971,56.0,33.4060649208128,98.3087978121876,74.21875,50.78125,1.81317014402576,1.0
186.473818911356,0.372947637822711,53.0,25.6393990917413,103.57414204023,82.03125,54.6875,1.84834223419773,1.0
186.916881512373,0.373833763024745,54.0,25.9782435592924,107.137679036212,89.84375,97.65625,1.88201723172633,1.0
185.228720975659,0.370457441951317,48.0,47.3242614244269,106.854091205895,93.75,93.75,1.9246021925942,1.0
213.641693515948,0.427283387031896,47.0,50.2445135352762,102.093282468833,89.84375,82.03125,1.79587118719957,1.0
215.814404092503,0.431628808185006,48.0,64.0219458106885,100.933229732435,85.9375,78.125,1.69058629589284,1.0
167.074902009451,0.334149804018902,46.0,36.710378433695,106.323622403121,93.75,74.21875,1.85522232121899,1.0
155.631871117121,0.311263742234241,43.0,26.0256998577857,104.086911284749,93.75,78.125,1.88874177693839,1.0
158.832937258729,0.317665874517457,40.0,41.2114058113707,98.3948298091745,82.03125,46.875,1.6576981793657,1.0
135.444899049171,0.270889798098342,44.0,145.914095137747,85.0390837142035,78.125,50.78125,1.70197423724314,1.0
113.259997027858,0.226519994055716,46.0,113.816734545421,84.5318308383984,74.21875,50.78125,1.64134853910912,1.0
113.543127042568,0.227086254085135,37.0,134.624146934581,89.9759147749355,78.125,78.125,1.73713573014874,1.0
121.57806892218,0.24315613784436,33.0,111.83316595775,97.9556656939938,85.9375,78.125,1.78494922029628,1.0
107.670796950762,0.215341593901523,39.0,128.943996994355,98.5642165733419,78.125,54.6875,1.80382816067636,1.0
136.535040035552,0.273070080071104,34.0,134.083805300116,82.308501850097,66.40625,46.875,1.53952033596355,1.0
118.247905071986,0.236495810143973,39.0,131.429847984831,81.1392798175792,70.3125,46.875,1.61214922957071,1.0
107.473586063389,0.214947172126778,40.0,128.016069949366,76.3646665421205,54.6875,54.6875,1.59437641049848,1.0
116.51640652057,0.233032813041139,35.0,84.7786744154865,81.3776212613091,58.59375,54.6875,1.6727253741793,1.0
112.608424882752,0.225216849765504,40.0,84.686268087978,95.4684938396255,93.75,97.65625,1.75053966491379,1.0
127.816120833458,0.255632241666916,41.0,101.695494131301,88.9845727412298,74.21875,46.875,1.69574579998178,1.0
126.433962661292,0.252867925322583,40.0,78.3428871446448,83.5930752244302,78.125,46.875,1.58882172779103,1.0
139.893610774004,0.279787221548009,38.0,316.355215283128,85.0499860227844,74.21875,46.875,1.72725306858636,1.0
136.919105282277,0.273838210564554,48.0,61.4036198985988,93.6262764030606,82.03125,50.78125,1.44338302277856,1.0
109.755355929622,0.219510711859245,55.0,58.5031545481619,93.8157475824126,78.125,66.40625,1.78463993565838,1.0
120.869097844951,0.241738195689902,39.0,155.203710752802,80.4317496341157,66.40625,54.6875,1.59016464176546,1.0
115.199728594071,0.230399457188142,37.0,86.0402075260329,97.0216323478011,89.84375,50.78125,1.74199775043981,1.0
145.030628013885,0.29006125602777,37.0,157.588020215253,92.9155149063296,74.21875,39.0625,1.80887771768919,1.0
188.348284759321,0.376696569518643,32.0,1856.72895451287,62.2306037008818,54.6875,46.875,1.23446826833,2.0
236.283498661053,0.472566997322106,30.0,1256.4475079024,63.2507442908572,58.59375,50.78125,1.34434813371572,2.0
164.682654761655,0.32936530952331,29.0,908.93970110957,61.2397132589859,58.59375,74.21875,1.36682824799336,2.0
163.830474311268,0.327660948622535,28.0,561.665211025802,63.145160772161,50.78125,27.34375,1.37561459091665,2.0
210.557857358682,0.421115714717365,29.0,942.952502627969,64.6089121623126,50.78125,46.875,1.44455281434582,2.0
171.600691881209,0.343201383762418,32.0,1744.7084078965,60.4515772736382,50.78125,46.875,1.44331092826403,2.0
205.823677933417,0.411647355866834,29.0,2703.90472407423,55.8593634710731,50.78125,31.25,1.33303475078873,2.0
141.347027829664,0.282694055659329,25.0,623.406898642277,63.1428862114705,54.6875,54.6875,1.37782552965158,2.0
202.939604604983,0.405879209209967,30.0,571.736897259256,67.5630499004555,62.5,42.96875,1.53519371145472,2.0
181.274647720979,0.362549295441958,36.0,612.865410849842,74.4464476977448,70.3125,70.3125,1.41388232498742,2.0
188.461831197374,0.376923662394747,31.0,470.32563089288,62.4879059269365,58.59375,39.0625,1.35962865270669,2.0
171.575805594512,0.343151611189024,29.0,846.926749628395,63.6618137044041,54.6875,50.78125,1.44351623902597,2.0
175.486189862028,0.350972379724056,29.0,266.001604658145,66.7811248866794,62.5,39.0625,1.36196140952384,2.0
203.234686317026,0.406469372634052,33.0,1892.64184408416,64.4903238019118,62.5,50.78125,1.36809099575636,2.0
197.203834612957,0.394407669225914,31.0,402.819961172537,64.1255363726112,62.5,50.78125,1.2971950765204,2.0
188.009161832357,0.376018323664714,30.0,768.842228955575,68.7439706857046,66.40625,66.40625,1.47693920477474,2.0
200.287932892631,0.400575865785261,35.0,367.965764444293,71.9018549184915,66.40625,66.40625,1.38775086797708,2.0
212.19214490758,0.424384289815161,27.0,612.545187947278,60.8060035685004,54.6875,54.6875,1.30450599802584,2.0
212.517359102696,0.425034718205393,22.0,982.665577342512,53.7544156527812,50.78125,50.78125,1.01572700192406,2.0
194.450650688364,0.388901301376729,23.0,873.192974306618,54.8329255392449,46.875,35.15625,1.17458725914034,2.0
226.133592128546,0.452267184257091,28.0,499.024216524605,56.0953790494614,42.96875,39.0625,1.16315525754507,2.0
204.694661485139,0.409389322970279,29.0,1210.24088013048,59.1565092316868,50.78125,31.25,1.2616795648752,2.0
140.326695234746,0.280653390469493,37.0,248.474966105852,73.3289188353441,74.21875,31.25,1.41085511521783,2.0
178.854323224553,0.357708646449107,33.0,1032.78941771372,61.4559329775986,54.6875,31.25,1.3607698024809,2.0
195.64615335739,0.39129230671478,30.0,199.211573560798,63.1270120492719,54.6875,54.6875,1.1608036461547,2.0
155.570840241987,0.311141680483973,33.0,1046.2031251621,56.2630279889103,42.96875,42.96875,1.06085476569379,2.0
170.165703714617,0.340331407429235,29.0,103.719614803171,58.2238804704635,46.875,35.15625,0.932813623025935,2.0
187.485450338841,0.374970900677682,24.0,565.117668531164,52.7094589214045,42.96875,31.25,1.10447358578399,2.0
159.163376310525,0.318326752621049,27.0,402.817806933534,57.2911668720069,46.875,27.34375,1.30642297737735,2.0
162.241477717171,0.324482955434343,32.0,454.971937328835,64.7812457138652,58.59375,54.6875,1.2692102283602,2.0
190.389096027809,0.380778192055619,31.0,758.34995836099,63.924863486878,58.59375,42.96875,1.35737487057734,2.0
173.455944343324,0.346911888686648,27.0,806.214708370287,62.5602018331558,50.78125,42.96875,1.37050742453904,2.0
160.827837254627,0.321655674509255,29.0,110.286686974799,63.3818123406573,54.6875,42.96875,1.13185852382625,2.0
214.892903739836,0.429785807479671,30.0,1327.00123109474,56.1043534448095,50.78125,39.0625,1.27438008985913,2.0
212.529397156145,0.425058794312289,30.0,237.954926793467,58.5658177022814,54.6875,66.40625,1.08554005460911,2.0
210.03995083402,0.420079901668041,34.0,1007.77903982147,55.6922881723368,46.875,35.15625,1.29077858193682,2.0
178.239335762,0.356478671523999,35.0,1129.80832324492,55.2557619362973,50.78125,50.78125,1.30511347979974,2.0
200.225008523846,0.400450017047691,32.0,2684.5022764135,49.439889709762,39.0625,35.15625,1.23461605622272,2.0
212.841506362904,0.425683012725808,26.0,2282.68177616492,50.0660651457987,39.0625,31.25,1.23512184895617,2.0
184.865199466615,0.36973039893323,32.0,1336.52861959781,58.04066976899,50.78125,27.34375,1.401059843359,2.0
195.23983018212,0.390479660364241,37.0,1471.22761895935,62.9745170922531,62.5,54.6875,1.27910847016027,2.0
202.545080988576,0.405090161977151,39.0,1403.97887785366,62.5357611013869,62.5,74.21875,1.34302650610859,2.0
190.301919052807,0.380603838105613,36.0,1305.21682368579,58.2822042447429,54.6875,54.6875,1.35496309844347,2.0
193.443145661913,0.386886291323827,33.0,224.222748314157,64.2940883011662,62.5,35.15625,1.26307220539421,2.0
263.759000657967,0.527518001315933,24.0,353.404081986753,49.7796382656218,46.875,46.875,0.986853285185654,2.0
230.733405539371,0.461466811078741,24.0,1299.46335996468,46.865483174301,46.875,46.875,0.87388598062404,2.0
174.18296717734,0.348365934354681,26.0,2031.47457856916,53.2381572649623,46.875,46.875,1.31982234119558,2.0
160.561725350573,0.321123450701147,36.0,999.622220860831,56.5454435651422,54.6875,58.59375,1.31664925343664,2.0
171.610618722559,0.343221237445118,32.0,795.588333872068,55.6813541796274,50.78125,42.96875,1.22619910236642,2.0
230.73321327326,0.461466426546519,30.0,1060.41646704999,57.3770723992306,50.78125,50.78125,1.33594387278877,2.0
228.232836673643,0.456465673347286,29.0,1223.06676451398,59.5391006675485,50.78125,50.78125,1.17863709749115,2.0
224.736353402119,0.449472706804239,23.0,1361.79028942646,53.2804675918064,50.78125,31.25,1.1328215633565,2.0
213.77968659368,0.42755937318736,28.0,1727.20811113332,50.5159535346479,42.96875,27.34375,1.27248220354539,2.0
195.196256858688,0.390392513717376,26.0,542.65355093673,51.7323255174053,46.875,46.875,0.881822877699349,2.0
228.849904734388,0.457699809468775,26.0,611.751892760935,54.516511931868,50.78125,31.25,1.30412280226742,2.0
198.560700364153,0.397121400728306,30.0,295.241371499661,58.0407237535381,54.6875,74.21875,1.22298280693694,2.0
191.889824541461,0.383779649082922,27.0,453.334191620779,57.6029373920021,54.6875,54.6875,1.22625729364791,2.0
232.300556537549,0.464601113075098,27.0,1342.87380374706,54.0951176064089,54.6875,31.25,1.24726845191326,2.0
242.811268843185,0.485622537686371,24.0,1160.43631198879,49.9628533719591,42.96875,31.25,1.07861845827046,2.0
212.729244924565,0.425458489849129,21.0,1119.8310987183,48.1550582635618,39.0625,39.0625,1.06828004209813,2.0
208.523734474043,0.417047468948087,25.0,825.615513696935,50.5640846488036,46.875,31.25,0.979082470483007,2.0
254.970474228756,0.509940948457511,26.0,2578.83990998728,49.8673960873724,50.78125,50.78125,1.13943929263296,2.0
280.385990322117,0.560771980644233,20.0,856.243884117627,47.8627405638018,46.875,50.78125,1.00638644159109,2.0
243.81903819433,0.48763807638866,22.0,818.518550788659,47.2703659729287,35.15625,54.6875,0.982549779366476,2.0
229.634235165633,0.459268470331267,25.0,1436.52821232551,50.0395712833834,50.78125,31.25,1.14124290359249,2.0
220.772668461282,0.441545336922564,27.0,685.209852346811,49.3989430993258,46.875,27.34375,0.669901745143235,2.0
185.907240829359,0.371814481658717,33.0,1381.35073408195,53.1241418222648,46.875,46.875,1.21797592351962,2.0
186.813492595294,0.373626985190589,29.0,440.71545853215,52.5730047744492,42.96875,35.15625,1.16745093145605,2.0
207.285846685029,0.414571693370059,22.0,422.679543183096,50.383012924207,46.875,66.40625,1.09292162506398,2.0
227.203889132909,0.454407778265819,21.0,666.349466743689,50.7009635269615,42.96875,42.96875,0.961115519896524,2.0
242.952924457907,0.485905848915814,24.0,637.600903484171,48.5387387401627,42.96875,42.96875,1.02450626431462,2.0
243.451487015246,0.486902974030491,26.0,1564.07884326559,47.7283696052006,46.875,46.875,1.15365227230515,2.0
241.316981658046,0.482633963316092,25.0,207.564284508282,51.47581435769,50.78125,54.6875,0.860497788401675,2.0
223.2337956544,0.4464675913088,25.0,190.294708058831,51.65203946094,46.875,31.25,0.82218014237155,2.0
216.866156815568,0.433732313631136,24.0,391.453402006314,50.7201620431968,46.875,23.4375,0.897264557858823,2.0
272.88078703541,0.545761574070819,24.0,200.279107910318,59.4779102305636,46.875,35.15625,1.41707992085887,2.0
274.507392277742,0.549014784555485,27.0,150.271012749102,64.1507359138824,54.6875,39.0625,1.35836275821413,2.0
267.436158445807,0.534872316891614,32.0,130.110019028926,62.3378156653582,54.6875,46.875,1.28502384395397,2.0
325.002009642581,0.650004019285162,33.0,231.928832275126,60.7662502956609,46.875,46.875,1.35509372259022,2.0
307.593699034496,0.615187398068991,32.0,195.364610901597,62.5837062760915,46.875,39.0625,1.19043610467352,2.0
217.168933479366,0.434337866958731,32.0,91.2393731457407,64.3987753305092,54.6875,27.34375,1.15978861870947,2.0
224.344125700469,0.448688251400937,32.0,129.589406516791,59.3831624301152,46.875,35.15625,1.23021033614338,2.0
186.090922936058,0.372181845872115,34.0,109.880269790099,64.3027039235097,62.5,35.15625,1.29740443364001,2.0
199.838180575883,0.399676361151767,40.0,285.686187816136,70.7133779234482,62.5,62.5,1.51192895272178,2.0
224.554110462378,0.449108220924757,35.0,370.699612042051,66.3558218519291,50.78125,46.875,1.36269665470897,2.0
217.163613981756,0.434327227963512,25.0,290.481304380907,64.0358802440234,54.6875,42.96875,1.42281027788135,2.0
222.983690752494,0.445967381504989,27.0,206.634537854514,69.5127663957476,54.6875,54.6875,1.34215369108782,2.0
271.035276421422,0.542070552842845,26.0,128.080788127203,66.377914559648,54.6875,74.21875,1.2798121491539,2.0
293.174174576171,0.586348349152342,27.0,447.160325459069,57.427919119775,46.875,54.6875,1.17040765043994,2.0
268.88965246389,0.53777930492778,32.0,226.100410447309,60.9968224383786,50.78125,31.25,1.22899177684559,2.0
239.131282723995,0.47826256544799,32.0,250.812329760187,63.4836204552313,50.78125,35.15625,1.37500396394272,2.0
232.977724179326,0.465955448358653,36.0,125.399933310605,65.4644362394977,50.78125,31.25,1.32315182254944,2.0
237.516162554598,0.475032325109195,41.0,142.960784716124,68.6172256844177,58.59375,70.3125,1.45291480013086,2.0
263.457692883293,0.526915385766585,40.0,150.715269460678,68.3405696514061,58.59375,58.59375,1.49059644394504,2.0
297.968039425896,0.595936078851791,35.0,157.996981705393,63.2592156675844,46.875,42.96875,1.36119470394044,2.0
326.28283523754,0.652565670475081,30.0,144.905737295964,58.0070960767627,42.96875,42.96875,1.25370566903056,2.0
331.723850892695,0.66344770178539,29.0,119.583312053735,57.5436098004935,42.96875,42.96875,1.31155623632697,2.0
400.274917742209,0.800549835484419,27.0,140.11964400009,50.8856103273174,39.0625,35.15625,1.13548425898101,2.0
457.312591699341,0.914625183398681,30.0,131.691584263754,55.91864228179,42.96875,35.15625,1.07997432931251,2.0
472.324910692998,0.944649821385996,32.0,111.407029140161,61.706305917152,39.0625,39.0625,1.29276952680517,2.0
354.930085055259,0.709860170110517,36.0,63.2874689063543,73.2239375923179,58.59375,31.25,1.34501219727567,2.0
381.377832899563,0.762755665799125,32.0,75.4059331545006,63.531076740589,39.0625,31.25,1.36331707507474,2.0
338.336153242485,0.676672306484971,32.0,77.2787963782605,61.5691060726168,39.0625,31.25,1.2372419351556,2.0
291.402896856894,0.582805793713788,35.0,146.153477004656,67.5218288363882,62.5,62.5,1.45589542029456,2.0
259.691665850499,0.519383331700997,27.0,180.258931009165,63.0594296234512,62.5,35.15625,1.4774749169517,2.0
286.01985690865,0.572039713817299,25.0,240.270135730607,60.1279495869211,42.96875,42.96875,1.4513164699104,2.0
313.799246418213,0.627598492836426,30.0,335.085680782402,65.2159643274299,58.59375,27.34375,1.40425374784848,2.0
324.917713420299,0.649835426840599,30.0,581.886922288483,61.470893843959,54.6875,35.15625,1.24436301363732,2.0
317.188297823509,0.634376595647018,25.0,358.600854831682,58.9013655185241,50.78125,39.0625,1.30903034721108,2.0
223.438930366049,0.446877860732098,35.0,276.864636583769,63.1292871721347,54.6875,39.0625,1.34190590551387,2.0
233.198205142394,0.466396410284787,38.0,257.414654134293,63.0652329918994,54.6875,39.0625,1.28575409580878,2.0
193.729925539254,0.387459851078508,32.0,466.086678951271,58.7019304549988,46.875,39.0625,1.3693076624365,2.0
192.52409761753,0.38504819523506,29.0,242.841592024507,55.9370146672015,50.78125,50.78125,1.15755721858672,2.0
242.842616125979,0.485685232251959,27.0,279.416179033961,58.9606746225108,50.78125,39.0625,1.23905149573562,2.0
226.793919674004,0.453587839348007,27.0,556.247335171611,59.1486724500738,42.96875,42.96875,1.32827959725864,2.0
245.423628740023,0.490847257480045,28.0,344.806009307122,68.1548117115905,62.5,35.15625,1.43230330330108,2.0
202.49605895613,0.404992117912259,33.0,104.953373683866,68.6925260940168,50.78125,39.0625,1.30106449606716,2.0
264.803453621469,0.529606907242937,31.0,419.36611045213,61.2612471600791,50.78125,50.78125,1.38288864321985,2.0
211.152686858204,0.422305373716407,30.0,72.0336395096432,64.0190033124916,54.6875,58.59375,1.12847565344413,2.0
201.440432446519,0.402880864893038,31.0,285.475313727446,63.2016467721179,50.78125,50.78125,1.46254693055815,2.0
237.896542360106,0.475793084720212,32.0,268.508088741743,62.9260618426029,50.78125,46.875,1.29692322249635,2.0
223.792720837304,0.447585441674609,33.0,407.700660908625,62.35790521354,54.6875,39.0625,1.41677612825717,2.0
226.290710205404,0.452581420410808,32.0,229.866206882593,62.9158790954616,50.78125,46.875,1.31736471190865,2.0
203.367786613626,0.406735573227251,33.0,308.727287048281,66.9574694857616,62.5,62.5,1.53038736953957,2.0
244.275032203772,0.488550064407544,30.0,350.469553541251,63.3524315022494,54.6875,54.6875,1.32646331627458,2.0
288.387923858704,0.576775847717409,27.0,458.828195057175,58.8214902164265,50.78125,35.15625,1.39701360541401,2.0
260.516247666328,0.521032495332656,30.0,232.333738754039,57.3774913025939,50.78125,46.875,1.07540225400668,2.0
230.970556567321,0.461941113134642,26.0,178.627667924684,59.3635189159405,46.875,27.34375,1.45686303028537,2.0
208.018135171467,0.416036270342934,28.0,156.968329028213,64.3204936298395,54.6875,31.25,1.4864324442882,2.0
215.064179681048,0.430128359362096,33.0,370.037687820608,66.6787738646465,62.5,62.5,1.42296621655126,2.0
206.526084914713,0.413052169829426,30.0,445.698032879608,64.8648553660643,50.78125,42.96875,1.58377658648891,2.0
213.087162769098,0.426174325538196,26.0,263.278797877351,59.0954139415363,39.0625,31.25,1.09085815474716,2.0
242.700753360569,0.485401506721138,30.0,548.012439409638,60.3543432442432,54.6875,31.25,1.42245204571227,2.0
209.405759190302,0.418811518380603,34.0,316.714334608723,61.926195471929,58.59375,54.6875,1.3988310986784,2.0
195.309205752261,0.390618411504521,33.0,109.152076006535,68.7133680212558,54.6875,39.0625,1.29433030354531,2.0
236.34342052394,0.47268684104788,33.0,141.777821791531,61.7985085495656,42.96875,42.96875,1.18933669283793,2.0
266.524805808255,0.53304961161651,24.0,159.044845399849,58.6972001183062,50.78125,27.34375,1.07862789712973,2.0
244.906750635198,0.489813501270397,24.0,475.380944115715,55.2075496669518,46.875,31.25,1.26373638673284,2.0
192.765941768698,0.385531883537395,28.0,124.232459575835,60.3202109209854,54.6875,54.6875,1.03811192477563,2.0
173.83296573872,0.347665931477441,32.0,316.598170487008,62.9609346240846,50.78125,50.78125,1.20821634033191,2.0
173.395935245612,0.346791870491225,35.0,308.087573771632,63.0515455738127,54.6875,50.78125,1.51360191804494,2.0
210.453866363473,0.420907732726946,29.0,369.908439449781,56.8798339190785,42.96875,35.15625,1.23303159287092,2.0
229.651268214464,0.459302536428928,26.0,428.923059411384,56.4113069181086,50.78125,31.25,1.38542878469736,2.0
215.912350157369,0.431824700314738,29.0,942.424244734901,55.7178047712657,46.875,46.875,1.33287411473986,2.0
268.175831948769,0.536351663897537,24.0,617.278875233933,56.9525592476586,54.6875,58.59375,0.944751907893953,2.0
212.420404368234,0.424840808736467,30.0,316.557704448123,60.9238685389952,58.59375,66.40625,1.34239520960768,2.0
189.92133880259,0.379842677605181,33.0,171.629170454834,57.7831061616617,58.59375,27.34375,1.18433978855904,2.0
257.464898429826,0.514929796859651,29.0,379.419636248009,50.9416027392786,46.875,31.25,1.12669465941206,2.0
232.965452917316,0.465930905834633,27.0,757.60586639162,48.6686103024688,46.875,46.875,1.18658336947555,2.0
195.786359367498,0.391572718734995,28.0,320.419690200025,56.321589164038,46.875,42.96875,1.15731909588836,2.0
224.674889068879,0.449349778137758,30.0,518.370940402912,59.5821636199618,50.78125,66.40625,1.40890469902251,2.0
178.298189517245,0.35659637903449,31.0,481.264745162235,60.6145711203589,50.78125,39.0625,1.32510013362935,2.0
246.688951624832,0.493377903249665,26.0,456.960334202339,51.0001665611179,39.0625,39.0625,1.24668472299684,2.0
